;content of C:\Users\Bruker\AppData\Local\Temp\92fetmp-49812754.raw - (Diffrac Plus V4 file)
_FILEVERSION = 3
_SAMPLE = Commander Sample ID
_+SAMPLE
_USER = Lab Manager
_GONIOMETER_CODE = 21
_STAGE_CODE = 4
; Goniometer : D8 theta/theta, stage : Open eulerian craddle
_SAMPLE_CHANGER_CODE = 0
_ATTACHMENTS_CODE = 0
_GONIOMETER_RADIUS = 415
_MONOCHROMATOR = 0
; Incident beam monochromator : None
_BETA_FILTER = N
_ANALYZER_CODE = 0
; Received beam analyzer : None
_DATEMEASURED = 09-Dec-2020 15:20:24
_RUNTIME = 12.37281
_WL_UNIT = A
_WL1 = 1.5406
_WL2 = 1.54439
_WL3 = 1.39222
_WLRATIO = 0.5
_ANODE = Cu
_V4_INF_USER = Lab Manager
_V4_INF_SAMPLEID = Commander Sample ID
_V4_INF_CREATOR = V5Converter
_V4_INF_CREATOR_VERSION = 3.3.47.0
_V4_INF_SUBSTRATE = Si (no database)
_V4_INF_LAYER = Si (no database)

; Data for range 1
_DRIVE = COUPLED
_STEPTIME = 76.8
_STEPSIZE = 0.02026
_STEPMODE = C
_START = 20
_THETA = 10
_2THETA = 20
_KHI = -0.3
_PHI = 0
_X = -9.77
_Y = 0
_Z = 0.7
_DETECTORSLIT = out
_AUX2 = 0
_TIMESTARTED = 0
_KV = 40
_MA = 40
_RANGE_WL = 1.5406
_3DPLANE = 0
_V4_PSD2THETA = 9999
_V4_PSDCHANNEL1 = 0
_V4_PSDAPERTURE = 2.083855
_V4_PSDTYPE = 5
_V4_PSDFIXED = 0
_V4_COUNTERS_MASK = 1
_V4_DRIVES_MASK = 0
_V4_ENCODERS_MASK = 0
_2THETACOUNTS = 1
; 2THETA	Cnt2_D1	
20.000000	21.000000	
20.020260	23.000000	
20.040519	20.000000	
20.060779	16.000000	
20.081039	17.000000	
20.101299	16.000000	
20.121558	16.000000	
20.141818	13.000000	
20.162078	20.000000	
20.182337	21.000000	
20.202597	15.000000	
20.222857	19.000000	
20.243116	17.000000	
20.263376	19.000000	
20.283636	15.000000	
20.303896	22.000000	
20.324155	27.000000	
20.344415	20.000000	
20.364675	26.000000	
20.384934	17.000000	
20.405194	17.000000	
20.425454	16.000000	
20.445713	16.000000	
20.465973	13.000000	
20.486233	20.000000	
20.506493	26.000000	
20.526752	19.000000	
20.547012	24.000000	
20.567272	23.000000	
20.587531	23.000000	
20.607791	18.000000	
20.628051	22.000000	
20.648310	15.000000	
20.668570	23.000000	
20.688830	19.000000	
20.709090	22.000000	
20.729349	20.000000	
20.749609	30.000000	
20.769869	22.000000	
20.790128	19.000000	
20.810388	23.000000	
20.830648	19.000000	
20.850907	14.000000	
20.871167	23.000000	
20.891427	27.000000	
20.911687	16.000000	
20.931946	20.000000	
20.952206	24.000000	
20.972466	22.000000	
20.992725	22.000000	
21.012985	19.000000	
21.033245	19.000000	
21.053504	20.000000	
21.073764	23.000000	
21.094024	22.000000	
21.114284	14.000000	
21.134543	14.000000	
21.154803	14.000000	
21.175063	24.000000	
21.195322	20.000000	
21.215582	14.000000	
21.235842	21.000000	
21.256101	15.000000	
21.276361	20.000000	
21.296621	20.000000	
21.316881	24.000000	
21.337140	12.000000	
21.357400	22.000000	
21.377660	20.000000	
21.397919	23.000000	
21.418179	13.000000	
21.438439	26.000000	
21.458698	22.000000	
21.478958	16.000000	
21.499218	18.000000	
21.519478	14.000000	
21.539737	18.000000	
21.559997	19.000000	
21.580257	20.000000	
21.600516	16.000000	
21.620776	20.000000	
21.641036	19.000000	
21.661295	19.000000	
21.681555	13.000000	
21.701815	20.000000	
21.722075	17.000000	
21.742334	22.000000	
21.762594	21.000000	
21.782854	24.000000	
21.803113	13.000000	
21.823373	18.000000	
21.843633	20.000000	
21.863893	21.000000	
21.884152	16.000000	
21.904412	19.000000	
21.924672	21.000000	
21.944931	19.000000	
21.965191	18.000000	
21.985451	13.000000	
22.005710	16.000000	
22.025970	25.000000	
22.046230	19.000000	
22.066490	18.000000	
22.086749	28.000000	
22.107009	20.000000	
22.127269	23.000000	
22.147528	12.000000	
22.167788	18.000000	
22.188048	23.000000	
22.208307	22.000000	
22.228567	21.000000	
22.248827	17.000000	
22.269087	22.000000	
22.289346	22.000000	
22.309606	20.000000	
22.329866	21.000000	
22.350125	8.000000	
22.370385	24.000000	
22.390645	17.000000	
22.410904	18.000000	
22.431164	29.000000	
22.451424	16.000000	
22.471684	25.000000	
22.491943	24.000000	
22.512203	30.000000	
22.532463	26.000000	
22.552722	25.000000	
22.572982	27.000000	
22.593242	27.000000	
22.613501	17.000000	
22.633761	18.000000	
22.654021	20.000000	
22.674281	18.000000	
22.694540	30.000000	
22.714800	24.000000	
22.735060	21.000000	
22.755319	24.000000	
22.775579	19.000000	
22.795839	20.000000	
22.816098	15.000000	
22.836358	22.000000	
22.856618	23.000000	
22.876878	18.000000	
22.897137	14.000000	
22.917397	30.000000	
22.937657	17.000000	
22.957916	18.000000	
22.978176	20.000000	
22.998436	16.000000	
23.018695	18.000000	
23.038955	28.000000	
23.059215	16.000000	
23.079475	16.000000	
23.099734	26.000000	
23.119994	23.000000	
23.140254	35.000000	
23.160513	21.000000	
23.180773	18.000000	
23.201033	24.000000	
23.221292	29.000000	
23.241552	18.000000	
23.261812	32.000000	
23.282072	24.000000	
23.302331	23.000000	
23.322591	21.000000	
23.342851	32.000000	
23.363110	23.000000	
23.383370	18.000000	
23.403630	25.000000	
23.423890	13.000000	
23.444149	27.000000	
23.464409	32.000000	
23.484669	28.000000	
23.504928	31.000000	
23.525188	25.000000	
23.545448	14.000000	
23.565707	29.000000	
23.585967	22.000000	
23.606227	23.000000	
23.626487	21.000000	
23.646746	18.000000	
23.667006	23.000000	
23.687266	24.000000	
23.707525	12.000000	
23.727785	14.000000	
23.748045	17.000000	
23.768304	19.000000	
23.788564	17.000000	
23.808824	15.000000	
23.829084	11.000000	
23.849343	15.000000	
23.869603	12.000000	
23.889863	23.000000	
23.910122	16.000000	
23.930382	22.000000	
23.950642	23.000000	
23.970901	16.000000	
23.991161	21.000000	
24.011421	19.000000	
24.031681	17.000000	
24.051940	18.000000	
24.072200	12.000000	
24.092460	17.000000	
24.112719	21.000000	
24.132979	17.000000	
24.153239	17.000000	
24.173498	13.000000	
24.193758	17.000000	
24.214018	14.000000	
24.234278	17.000000	
24.254537	9.000000	
24.274797	13.000000	
24.295057	14.000000	
24.315316	21.000000	
24.335576	15.000000	
24.355836	8.000000	
24.376095	11.000000	
24.396355	14.000000	
24.416615	20.000000	
24.436875	21.000000	
24.457134	15.000000	
24.477394	9.000000	
24.497654	21.000000	
24.517913	6.000000	
24.538173	14.000000	
24.558433	17.000000	
24.578692	13.000000	
24.598952	13.000000	
24.619212	14.000000	
24.639472	13.000000	
24.659731	18.000000	
24.679991	17.000000	
24.700251	10.000000	
24.720510	15.000000	
24.740770	11.000000	
24.761030	15.000000	
24.781289	12.000000	
24.801549	16.000000	
24.821809	10.000000	
24.842069	15.000000	
24.862328	12.000000	
24.882588	15.000000	
24.902848	13.000000	
24.923107	8.000000	
24.943367	15.000000	
24.963627	13.000000	
24.983886	15.000000	
25.004146	9.000000	
25.024406	14.000000	
25.044666	19.000000	
25.064925	12.000000	
25.085185	12.000000	
25.105445	12.000000	
25.125704	18.000000	
25.145964	16.000000	
25.166224	7.000000	
25.186484	17.000000	
25.206743	10.000000	
25.227003	12.000000	
25.247263	18.000000	
25.267522	14.000000	
25.287782	13.000000	
25.308042	8.000000	
25.328301	9.000000	
25.348561	17.000000	
25.368821	16.000000	
25.389081	19.000000	
25.409340	15.000000	
25.429600	12.000000	
25.449860	16.000000	
25.470119	13.000000	
25.490379	9.000000	
25.510639	14.000000	
25.530898	15.000000	
25.551158	17.000000	
25.571418	17.000000	
25.591678	14.000000	
25.611937	21.000000	
25.632197	9.000000	
25.652457	13.000000	
25.672716	19.000000	
25.692976	14.000000	
25.713236	11.000000	
25.733495	11.000000	
25.753755	15.000000	
25.774015	16.000000	
25.794275	10.000000	
25.814534	14.000000	
25.834794	12.000000	
25.855054	13.000000	
25.875313	16.000000	
25.895573	19.000000	
25.915833	13.000000	
25.936092	9.000000	
25.956352	16.000000	
25.976612	13.000000	
25.996872	13.000000	
26.017131	11.000000	
26.037391	13.000000	
26.057651	12.000000	
26.077910	15.000000	
26.098170	15.000000	
26.118430	14.000000	
26.138689	16.000000	
26.158949	21.000000	
26.179209	18.000000	
26.199469	12.000000	
26.219728	13.000000	
26.239988	12.000000	
26.260248	11.000000	
26.280507	15.000000	
26.300767	14.000000	
26.321027	11.000000	
26.341286	13.000000	
26.361546	12.000000	
26.381806	12.000000	
26.402066	13.000000	
26.422325	12.000000	
26.442585	11.000000	
26.462845	14.000000	
26.483104	16.000000	
26.503364	12.000000	
26.523624	20.000000	
26.543883	13.000000	
26.564143	18.000000	
26.584403	13.000000	
26.604663	8.000000	
26.624922	23.000000	
26.645182	8.000000	
26.665442	18.000000	
26.685701	12.000000	
26.705961	14.000000	
26.726221	16.000000	
26.746481	15.000000	
26.766740	14.000000	
26.787000	16.000000	
26.807260	22.000000	
26.827519	15.000000	
26.847779	17.000000	
26.868039	17.000000	
26.888298	13.000000	
26.908558	21.000000	
26.928818	15.000000	
26.949078	20.000000	
26.969337	27.000000	
26.989597	19.000000	
27.009857	18.000000	
27.030116	26.000000	
27.050376	28.000000	
27.070636	21.000000	
27.090895	23.000000	
27.111155	24.000000	
27.131415	13.000000	
27.151675	24.000000	
27.171934	19.000000	
27.192194	17.000000	
27.212454	17.000000	
27.232713	14.000000	
27.252973	9.000000	
27.273233	20.000000	
27.293492	9.000000	
27.313752	11.000000	
27.334012	14.000000	
27.354272	8.000000	
27.374531	13.000000	
27.394791	13.000000	
27.415051	13.000000	
27.435310	12.000000	
27.455570	9.000000	
27.475830	9.000000	
27.496089	16.000000	
27.516349	18.000000	
27.536609	14.000000	
27.556869	10.000000	
27.577128	9.000000	
27.597388	10.000000	
27.617648	17.000000	
27.637907	11.000000	
27.658167	12.000000	
27.678427	14.000000	
27.698686	14.000000	
27.718946	14.000000	
27.739206	9.000000	
27.759466	10.000000	
27.779725	15.000000	
27.799985	11.000000	
27.820245	19.000000	
27.840504	14.000000	
27.860764	12.000000	
27.881024	15.000000	
27.901283	10.000000	
27.921543	14.000000	
27.941803	12.000000	
27.962063	11.000000	
27.982322	16.000000	
28.002582	12.000000	
28.022842	15.000000	
28.043101	18.000000	
28.063361	10.000000	
28.083621	11.000000	
28.103880	10.000000	
28.124140	17.000000	
28.144400	10.000000	
28.164660	11.000000	
28.184919	11.000000	
28.205179	5.000000	
28.225439	12.000000	
28.245698	13.000000	
28.265958	10.000000	
28.286218	16.000000	
28.306477	8.000000	
28.326737	13.000000	
28.346997	13.000000	
28.367257	17.000000	
28.387516	9.000000	
28.407776	10.000000	
28.428036	11.000000	
28.448295	15.000000	
28.468555	15.000000	
28.488815	13.000000	
28.509075	14.000000	
28.529334	14.000000	
28.549594	13.000000	
28.569854	13.000000	
28.590113	14.000000	
28.610373	13.000000	
28.630633	14.000000	
28.650892	17.000000	
28.671152	18.000000	
28.691412	18.000000	
28.711672	16.000000	
28.731931	14.000000	
28.752191	12.000000	
28.772451	11.000000	
28.792710	25.000000	
28.812970	19.000000	
28.833230	28.000000	
28.853489	20.000000	
28.873749	20.000000	
28.894009	12.000000	
28.914269	32.000000	
28.934528	34.000000	
28.954788	25.000000	
28.975048	31.000000	
28.995307	32.000000	
29.015567	39.000000	
29.035827	29.000000	
29.056086	41.000000	
29.076346	29.000000	
29.096606	25.000000	
29.116866	27.000000	
29.137125	24.000000	
29.157385	23.000000	
29.177645	25.000000	
29.197904	18.000000	
29.218164	26.000000	
29.238424	15.000000	
29.258683	19.000000	
29.278943	15.000000	
29.299203	9.000000	
29.319463	15.000000	
29.339722	8.000000	
29.359982	12.000000	
29.380242	15.000000	
29.400501	9.000000	
29.420761	5.000000	
29.441021	16.000000	
29.461280	8.000000	
29.481540	9.000000	
29.501800	10.000000	
29.522060	9.000000	
29.542319	14.000000	
29.562579	12.000000	
29.582839	12.000000	
29.603098	10.000000	
29.623358	9.000000	
29.643618	11.000000	
29.663877	11.000000	
29.684137	9.000000	
29.704397	19.000000	
29.724657	8.000000	
29.744916	6.000000	
29.765176	7.000000	
29.785436	13.000000	
29.805695	9.000000	
29.825955	6.000000	
29.846215	7.000000	
29.866474	13.000000	
29.886734	6.000000	
29.906994	9.000000	
29.927254	8.000000	
29.947513	11.000000	
29.967773	10.000000	
29.988033	13.000000	
30.008292	8.000000	
30.028552	13.000000	
30.048812	16.000000	
30.069071	11.000000	
30.089331	10.000000	
30.109591	16.000000	
30.129851	7.000000	
30.150110	15.000000	
30.170370	12.000000	
30.190630	13.000000	
30.210889	4.000000	
30.231149	6.000000	
30.251409	6.000000	
30.271669	7.000000	
30.291928	5.000000	
30.312188	14.000000	
30.332448	13.000000	
30.352707	13.000000	
30.372967	10.000000	
30.393227	15.000000	
30.413486	9.000000	
30.433746	11.000000	
30.454006	10.000000	
30.474266	10.000000	
30.494525	8.000000	
30.514785	10.000000	
30.535045	11.000000	
30.555304	10.000000	
30.575564	9.000000	
30.595824	14.000000	
30.616083	6.000000	
30.636343	11.000000	
30.656603	5.000000	
30.676863	13.000000	
30.697122	14.000000	
30.717382	10.000000	
30.737642	8.000000	
30.757901	16.000000	
30.778161	14.000000	
30.798421	12.000000	
30.818680	5.000000	
30.838940	12.000000	
30.859200	11.000000	
30.879460	9.000000	
30.899719	15.000000	
30.919979	9.000000	
30.940239	8.000000	
30.960498	12.000000	
30.980758	12.000000	
31.001018	8.000000	
31.021277	14.000000	
31.041537	8.000000	
31.061797	6.000000	
31.082057	8.000000	
31.102316	14.000000	
31.122576	12.000000	
31.142836	15.000000	
31.163095	9.000000	
31.183355	17.000000	
31.203615	10.000000	
31.223874	18.000000	
31.244134	11.000000	
31.264394	10.000000	
31.284654	13.000000	
31.304913	14.000000	
31.325173	9.000000	
31.345433	7.000000	
31.365692	14.000000	
31.385952	3.000000	
31.406212	14.000000	
31.426471	13.000000	
31.446731	9.000000	
31.466991	8.000000	
31.487251	10.000000	
31.507510	9.000000	
31.527770	10.000000	
31.548030	7.000000	
31.568289	8.000000	
31.588549	5.000000	
31.608809	11.000000	
31.629068	8.000000	
31.649328	11.000000	
31.669588	16.000000	
31.689848	14.000000	
31.710107	8.000000	
31.730367	14.000000	
31.750627	13.000000	
31.770886	8.000000	
31.791146	11.000000	
31.811406	10.000000	
31.831666	9.000000	
31.851925	10.000000	
31.872185	11.000000	
31.892445	4.000000	
31.912704	13.000000	
31.932964	14.000000	
31.953224	6.000000	
31.973483	11.000000	
31.993743	9.000000	
32.014003	14.000000	
32.034263	7.000000	
32.054522	11.000000	
32.074782	16.000000	
32.095042	8.000000	
32.115301	14.000000	
32.135561	15.000000	
32.155821	15.000000	
32.176080	10.000000	
32.196340	9.000000	
32.216600	8.000000	
32.236860	12.000000	
32.257119	18.000000	
32.277379	11.000000	
32.297639	9.000000	
32.317898	15.000000	
32.338158	17.000000	
32.358418	10.000000	
32.378677	11.000000	
32.398937	9.000000	
32.419197	12.000000	
32.439457	7.000000	
32.459716	10.000000	
32.479976	10.000000	
32.500236	13.000000	
32.520495	12.000000	
32.540755	11.000000	
32.561015	12.000000	
32.581274	15.000000	
32.601534	10.000000	
32.621794	16.000000	
32.642054	9.000000	
32.662313	20.000000	
32.682573	16.000000	
32.702833	19.000000	
32.723092	10.000000	
32.743352	23.000000	
32.763612	23.000000	
32.783871	34.000000	
32.804131	21.000000	
32.824391	37.000000	
32.844651	48.000000	
32.864910	71.000000	
32.885170	234.000000	
32.905430	329.000000	
32.925689	308.000000	
32.945949	358.000000	
32.966209	420.000000	
32.986468	427.000000	
33.006728	429.000000	
33.026988	367.000000	
33.047248	215.000000	
33.067507	147.000000	
33.087767	171.000000	
33.108027	114.000000	
33.128286	41.000000	
33.148546	29.000000	
33.168806	24.000000	
33.189065	13.000000	
33.209325	14.000000	
33.229585	19.000000	
33.249845	19.000000	
33.270104	27.000000	
33.290364	13.000000	
33.310624	19.000000	
33.330883	16.000000	
33.351143	14.000000	
33.371403	12.000000	
33.391662	15.000000	
33.411922	9.000000	
33.432182	20.000000	
33.452442	7.000000	
33.472701	11.000000	
33.492961	8.000000	
33.513221	6.000000	
33.533480	11.000000	
33.553740	12.000000	
33.574000	6.000000	
33.594260	11.000000	
33.614519	4.000000	
33.634779	16.000000	
33.655039	7.000000	
33.675298	9.000000	
33.695558	7.000000	
33.715818	12.000000	
33.736077	15.000000	
33.756337	8.000000	
33.776597	8.000000	
33.796857	3.000000	
33.817116	11.000000	
33.837376	3.000000	
33.857636	8.000000	
33.877895	5.000000	
33.898155	10.000000	
33.918415	11.000000	
33.938674	8.000000	
33.958934	11.000000	
33.979194	9.000000	
33.999454	10.000000	
34.019713	10.000000	
34.039973	9.000000	
34.060233	8.000000	
34.080492	11.000000	
34.100752	12.000000	
34.121012	10.000000	
34.141271	10.000000	
34.161531	18.000000	
34.181791	6.000000	
34.202051	9.000000	
34.222310	10.000000	
34.242570	11.000000	
34.262830	9.000000	
34.283089	13.000000	
34.303349	12.000000	
34.323609	13.000000	
34.343868	8.000000	
34.364128	8.000000	
34.384388	7.000000	
34.404648	9.000000	
34.424907	6.000000	
34.445167	6.000000	
34.465427	10.000000	
34.485686	12.000000	
34.505946	11.000000	
34.526206	10.000000	
34.546465	11.000000	
34.566725	7.000000	
34.586985	8.000000	
34.607245	8.000000	
34.627504	11.000000	
34.647764	4.000000	
34.668024	9.000000	
34.688283	8.000000	
34.708543	9.000000	
34.728803	13.000000	
34.749062	10.000000	
34.769322	16.000000	
34.789582	8.000000	
34.809842	7.000000	
34.830101	5.000000	
34.850361	10.000000	
34.870621	8.000000	
34.890880	10.000000	
34.911140	6.000000	
34.931400	13.000000	
34.951659	10.000000	
34.971919	6.000000	
34.992179	12.000000	
35.012439	7.000000	
35.032698	3.000000	
35.052958	10.000000	
35.073218	9.000000	
35.093477	9.000000	
35.113737	7.000000	
35.133997	6.000000	
35.154257	12.000000	
35.174516	7.000000	
35.194776	10.000000	
35.215036	9.000000	
35.235295	10.000000	
35.255555	8.000000	
35.275815	4.000000	
35.296074	12.000000	
35.316334	5.000000	
35.336594	6.000000	
35.356854	4.000000	
35.377113	6.000000	
35.397373	6.000000	
35.417633	8.000000	
35.437892	5.000000	
35.458152	5.000000	
35.478412	9.000000	
35.498671	10.000000	
35.518931	9.000000	
35.539191	8.000000	
35.559451	9.000000	
35.579710	6.000000	
35.599970	2.000000	
35.620230	7.000000	
35.640489	4.000000	
35.660749	8.000000	
35.681009	11.000000	
35.701268	5.000000	
35.721528	5.000000	
35.741788	9.000000	
35.762048	6.000000	
35.782307	3.000000	
35.802567	8.000000	
35.822827	5.000000	
35.843086	7.000000	
35.863346	6.000000	
35.883606	6.000000	
35.903865	7.000000	
35.924125	6.000000	
35.944385	9.000000	
35.964645	9.000000	
35.984904	11.000000	
36.005164	5.000000	
36.025424	3.000000	
36.045683	7.000000	
36.065943	6.000000	
36.086203	11.000000	
36.106462	10.000000	
36.126722	6.000000	
36.146982	4.000000	
36.167242	4.000000	
36.187501	16.000000	
36.207761	9.000000	
36.228021	9.000000	
36.248280	8.000000	
36.268540	7.000000	
36.288800	7.000000	
36.309059	4.000000	
36.329319	13.000000	
36.349579	1.000000	
36.369839	6.000000	
36.390098	5.000000	
36.410358	11.000000	
36.430618	6.000000	
36.450877	9.000000	
36.471137	8.000000	
36.491397	4.000000	
36.511656	6.000000	
36.531916	11.000000	
36.552176	9.000000	
36.572436	6.000000	
36.592695	14.000000	
36.612955	6.000000	
36.633215	8.000000	
36.653474	8.000000	
36.673734	4.000000	
36.693994	7.000000	
36.714253	6.000000	
36.734513	6.000000	
36.754773	4.000000	
36.775033	12.000000	
36.795292	3.000000	
36.815552	6.000000	
36.835812	5.000000	
36.856071	3.000000	
36.876331	19.000000	
36.896591	3.000000	
36.916851	9.000000	
36.937110	2.000000	
36.957370	8.000000	
36.977630	9.000000	
36.997889	8.000000	
37.018149	7.000000	
37.038409	6.000000	
37.058668	7.000000	
37.078928	6.000000	
37.099188	6.000000	
37.119448	6.000000	
37.139707	9.000000	
37.159967	4.000000	
37.180227	6.000000	
37.200486	4.000000	
37.220746	6.000000	
37.241006	2.000000	
37.261265	10.000000	
37.281525	5.000000	
37.301785	5.000000	
37.322045	7.000000	
37.342304	11.000000	
37.362564	6.000000	
37.382824	7.000000	
37.403083	2.000000	
37.423343	6.000000	
37.443603	10.000000	
37.463862	9.000000	
37.484122	7.000000	
37.504382	6.000000	
37.524642	3.000000	
37.544901	2.000000	
37.565161	11.000000	
37.585421	6.000000	
37.605680	7.000000	
37.625940	12.000000	
37.646200	7.000000	
37.666459	6.000000	
37.686719	3.000000	
37.706979	6.000000	
37.727239	6.000000	
37.747498	11.000000	
37.767758	12.000000	
37.788018	11.000000	
37.808277	5.000000	
37.828537	5.000000	
37.848797	2.000000	
37.869056	4.000000	
37.889316	9.000000	
37.909576	9.000000	
37.929836	9.000000	
37.950095	7.000000	
37.970355	8.000000	
37.990615	7.000000	
38.010874	9.000000	
38.031134	3.000000	
38.051394	6.000000	
38.071653	4.000000	
38.091913	8.000000	
38.112173	2.000000	
38.132433	6.000000	
38.152692	3.000000	
38.172952	6.000000	
38.193212	8.000000	
38.213471	4.000000	
38.233731	11.000000	
38.253991	3.000000	
38.274250	8.000000	
38.294510	9.000000	
38.314770	8.000000	
38.335030	6.000000	
38.355289	6.000000	
38.375549	7.000000	
38.395809	3.000000	
38.416068	9.000000	
38.436328	4.000000	
38.456588	12.000000	
38.476847	4.000000	
38.497107	8.000000	
38.517367	5.000000	
38.537627	4.000000	
38.557886	9.000000	
38.578146	7.000000	
38.598406	8.000000	
38.618665	8.000000	
38.638925	5.000000	
38.659185	7.000000	
38.679445	8.000000	
38.699704	5.000000	
38.719964	12.000000	
38.740224	8.000000	
38.760483	2.000000	
38.780743	9.000000	
38.801003	8.000000	
38.821262	7.000000	
38.841522	12.000000	
38.861782	7.000000	
38.882042	6.000000	
38.902301	4.000000	
38.922561	5.000000	
38.942821	5.000000	
38.963080	8.000000	
38.983340	4.000000	
39.003600	5.000000	
39.023859	8.000000	
39.044119	7.000000	
39.064379	8.000000	
39.084639	5.000000	
39.104898	11.000000	
39.125158	6.000000	
39.145418	4.000000	
39.165677	5.000000	
39.185937	8.000000	
39.206197	5.000000	
39.226456	5.000000	
39.246716	3.000000	
39.266976	3.000000	
39.287236	3.000000	
39.307495	11.000000	
39.327755	11.000000	
39.348015	12.000000	
39.368274	8.000000	
39.388534	4.000000	
39.408794	4.000000	
39.429053	12.000000	
39.449313	10.000000	
39.469573	6.000000	
39.489833	8.000000	
39.510092	6.000000	
39.530352	2.000000	
39.550612	10.000000	
39.570871	4.000000	
39.591131	8.000000	
39.611391	5.000000	
39.631650	3.000000	
39.651910	0.000000	
39.672170	5.000000	
39.692430	7.000000	
39.712689	10.000000	
39.732949	13.000000	
39.753209	5.000000	
39.773468	8.000000	
39.793728	3.000000	
39.813988	4.000000	
39.834247	13.000000	
39.854507	10.000000	
39.874767	6.000000	
39.895027	4.000000	
39.915286	5.000000	
39.935546	7.000000	
39.955806	4.000000	
39.976065	9.000000	
39.996325	2.000000	
40.016585	9.000000	
40.036844	6.000000	
40.057104	8.000000	
40.077364	8.000000	
40.097624	5.000000	
40.117883	4.000000	
40.138143	3.000000	
40.158403	13.000000	
40.178662	7.000000	
40.198922	6.000000	
40.219182	5.000000	
40.239442	7.000000	
40.259701	8.000000	
40.279961	4.000000	
40.300221	12.000000	
40.320480	8.000000	
40.340740	7.000000	
40.361000	6.000000	
40.381259	5.000000	
40.401519	5.000000	
40.421779	8.000000	
40.442039	5.000000	
40.462298	9.000000	
40.482558	7.000000	
40.502818	9.000000	
40.523077	14.000000	
40.543337	5.000000	
40.563597	7.000000	
40.583856	3.000000	
40.604116	6.000000	
40.624376	5.000000	
40.644636	5.000000	
40.664895	8.000000	
40.685155	7.000000	
40.705415	3.000000	
40.725674	9.000000	
40.745934	9.000000	
40.766194	6.000000	
40.786453	4.000000	
40.806713	3.000000	
40.826973	8.000000	
40.847233	10.000000	
40.867492	6.000000	
40.887752	2.000000	
40.908012	14.000000	
40.928271	8.000000	
40.948531	3.000000	
40.968791	6.000000	
40.989050	8.000000	
41.009310	8.000000	
41.029570	6.000000	
41.049830	0.000000	
41.070089	9.000000	
41.090349	10.000000	
41.110609	11.000000	
41.130868	8.000000	
41.151128	5.000000	
41.171388	6.000000	
41.191647	3.000000	
41.211907	7.000000	
41.232167	7.000000	
41.252427	6.000000	
41.272686	6.000000	
41.292946	9.000000	
41.313206	5.000000	
41.333465	5.000000	
41.353725	10.000000	
41.373985	8.000000	
41.394244	8.000000	
41.414504	6.000000	
41.434764	8.000000	
41.455024	7.000000	
41.475283	5.000000	
41.495543	1.000000	
41.515803	13.000000	
41.536062	5.000000	
41.556322	3.000000	
41.576582	6.000000	
41.596841	12.000000	
41.617101	5.000000	
41.637361	8.000000	
41.657621	7.000000	
41.677880	6.000000	
41.698140	5.000000	
41.718400	4.000000	
41.738659	5.000000	
41.758919	7.000000	
41.779179	12.000000	
41.799438	9.000000	
41.819698	5.000000	
41.839958	5.000000	
41.860218	11.000000	
41.880477	3.000000	
41.900737	7.000000	
41.920997	10.000000	
41.941256	7.000000	
41.961516	10.000000	
41.981776	8.000000	
42.002036	6.000000	
42.022295	8.000000	
42.042555	4.000000	
42.062815	10.000000	
42.083074	8.000000	
42.103334	11.000000	
42.123594	6.000000	
42.143853	5.000000	
42.164113	5.000000	
42.184373	4.000000	
42.204633	6.000000	
42.224892	3.000000	
42.245152	4.000000	
42.265412	9.000000	
42.285671	5.000000	
42.305931	1.000000	
42.326191	3.000000	
42.346450	6.000000	
42.366710	5.000000	
42.386970	9.000000	
42.407230	6.000000	
42.427489	6.000000	
42.447749	4.000000	
42.468009	5.000000	
42.488268	5.000000	
42.508528	5.000000	
42.528788	3.000000	
42.549047	4.000000	
42.569307	2.000000	
42.589567	5.000000	
42.609827	6.000000	
42.630086	6.000000	
42.650346	8.000000	
42.670606	3.000000	
42.690865	9.000000	
42.711125	3.000000	
42.731385	5.000000	
42.751644	8.000000	
42.771904	10.000000	
42.792164	5.000000	
42.812424	8.000000	
42.832683	6.000000	
42.852943	9.000000	
42.873203	6.000000	
42.893462	6.000000	
42.913722	10.000000	
42.933982	3.000000	
42.954241	8.000000	
42.974501	5.000000	
42.994761	3.000000	
43.015021	7.000000	
43.035280	5.000000	
43.055540	10.000000	
43.075800	5.000000	
43.096059	5.000000	
43.116319	5.000000	
43.136579	6.000000	
43.156838	7.000000	
43.177098	3.000000	
43.197358	6.000000	
43.217618	5.000000	
43.237877	3.000000	
43.258137	8.000000	
43.278397	4.000000	
43.298656	5.000000	
43.318916	7.000000	
43.339176	5.000000	
43.359435	7.000000	
43.379695	5.000000	
43.399955	5.000000	
43.420215	6.000000	
43.440474	8.000000	
43.460734	8.000000	
43.480994	7.000000	
43.501253	8.000000	
43.521513	10.000000	
43.541773	4.000000	
43.562033	5.000000	
43.582292	6.000000	
43.602552	7.000000	
43.622812	2.000000	
43.643071	8.000000	
43.663331	9.000000	
43.683591	2.000000	
43.703850	2.000000	
43.724110	6.000000	
43.744370	10.000000	
43.764630	1.000000	
43.784889	6.000000	
43.805149	10.000000	
43.825409	6.000000	
43.845668	6.000000	
43.865928	4.000000	
43.886188	12.000000	
43.906447	11.000000	
43.926707	6.000000	
43.946967	5.000000	
43.967227	10.000000	
43.987486	3.000000	
44.007746	10.000000	
44.028006	5.000000	
44.048265	11.000000	
44.068525	9.000000	
44.088785	7.000000	
44.109044	9.000000	
44.129304	8.000000	
44.149564	10.000000	
44.169824	8.000000	
44.190083	7.000000	
44.210343	2.000000	
44.230603	9.000000	
44.250862	3.000000	
44.271122	6.000000	
44.291382	6.000000	
44.311641	6.000000	
44.331901	10.000000	
44.352161	2.000000	
44.372421	11.000000	
44.392680	9.000000	
44.412940	6.000000	
44.433200	7.000000	
44.453459	5.000000	
44.473719	7.000000	
44.493979	5.000000	
44.514238	1.000000	
44.534498	8.000000	
44.554758	2.000000	
44.575018	5.000000	
44.595277	5.000000	
44.615537	7.000000	
44.635797	4.000000	
44.656056	7.000000	
44.676316	4.000000	
44.696576	6.000000	
44.716835	5.000000	
44.737095	7.000000	
44.757355	4.000000	
44.777615	6.000000	
44.797874	6.000000	
44.818134	5.000000	
44.838394	5.000000	
44.858653	5.000000	
44.878913	11.000000	
44.899173	4.000000	
44.919432	5.000000	
44.939692	5.000000	
44.959952	8.000000	
44.980212	4.000000	
45.000471	6.000000	
45.020731	7.000000	
45.040991	6.000000	
45.061250	10.000000	
45.081510	8.000000	
45.101770	7.000000	
45.122029	7.000000	
45.142289	6.000000	
45.162549	7.000000	
45.182809	6.000000	
45.203068	5.000000	
45.223328	7.000000	
45.243588	5.000000	
45.263847	2.000000	
45.284107	3.000000	
45.304367	6.000000	
45.324627	4.000000	
45.344886	11.000000	
45.365146	5.000000	
45.385406	5.000000	
45.405665	3.000000	
45.425925	6.000000	
45.446185	8.000000	
45.466444	5.000000	
45.486704	5.000000	
45.506964	2.000000	
45.527224	9.000000	
45.547483	7.000000	
45.567743	5.000000	
45.588003	3.000000	
45.608262	6.000000	
45.628522	6.000000	
45.648782	1.000000	
45.669041	5.000000	
45.689301	3.000000	
45.709561	10.000000	
45.729821	5.000000	
45.750080	7.000000	
45.770340	7.000000	
45.790600	2.000000	
45.810859	6.000000	
45.831119	6.000000	
45.851379	2.000000	
45.871638	7.000000	
45.891898	7.000000	
45.912158	2.000000	
45.932418	5.000000	
45.952677	6.000000	
45.972937	3.000000	
45.993197	5.000000	
46.013456	8.000000	
46.033716	6.000000	
46.053976	6.000000	
46.074235	4.000000	
46.094495	6.000000	
46.114755	11.000000	
46.135015	3.000000	
46.155274	11.000000	
46.175534	0.000000	
46.195794	8.000000	
46.216053	5.000000	
46.236313	11.000000	
46.256573	8.000000	
46.276832	10.000000	
46.297092	6.000000	
46.317352	6.000000	
46.337612	4.000000	
46.357871	5.000000	
46.378131	0.000000	
46.398391	3.000000	
46.418650	3.000000	
46.438910	8.000000	
46.459170	7.000000	
46.479429	8.000000	
46.499689	4.000000	
46.519949	7.000000	
46.540209	2.000000	
46.560468	4.000000	
46.580728	4.000000	
46.600988	11.000000	
46.621247	6.000000	
46.641507	7.000000	
46.661767	7.000000	
46.682026	3.000000	
46.702286	8.000000	
46.722546	3.000000	
46.742806	6.000000	
46.763065	4.000000	
46.783325	3.000000	
46.803585	6.000000	
46.823844	5.000000	
46.844104	4.000000	
46.864364	4.000000	
46.884623	6.000000	
46.904883	3.000000	
46.925143	4.000000	
46.945403	6.000000	
46.965662	2.000000	
46.985922	7.000000	
47.006182	7.000000	
47.026441	6.000000	
47.046701	6.000000	
47.066961	5.000000	
47.087221	5.000000	
47.107480	13.000000	
47.127740	10.000000	
47.148000	7.000000	
47.168259	7.000000	
47.188519	4.000000	
47.208779	1.000000	
47.229038	5.000000	
47.249298	6.000000	
47.269558	4.000000	
47.289818	2.000000	
47.310077	8.000000	
47.330337	5.000000	
47.350597	7.000000	
47.370856	4.000000	
47.391116	14.000000	
47.411376	6.000000	
47.431635	6.000000	
47.451895	6.000000	
47.472155	6.000000	
47.492415	4.000000	
47.512674	2.000000	
47.532934	6.000000	
47.553194	9.000000	
47.573453	12.000000	
47.593713	6.000000	
47.613973	8.000000	
47.634232	2.000000	
47.654492	5.000000	
47.674752	2.000000	
47.695012	4.000000	
47.715271	8.000000	
47.735531	6.000000	
47.755791	3.000000	
47.776050	4.000000	
47.796310	4.000000	
47.816570	4.000000	
47.836829	2.000000	
47.857089	9.000000	
47.877349	10.000000	
47.897609	4.000000	
47.917868	5.000000	
47.938128	3.000000	
47.958388	4.000000	
47.978647	3.000000	
47.998907	8.000000	
48.019167	7.000000	
48.039426	7.000000	
48.059686	3.000000	
48.079946	5.000000	
48.100206	7.000000	
48.120465	4.000000	
48.140725	5.000000	
48.160985	1.000000	
48.181244	11.000000	
48.201504	6.000000	
48.221764	4.000000	
48.242023	4.000000	
48.262283	3.000000	
48.282543	0.000000	
48.302803	7.000000	
48.323062	8.000000	
48.343322	7.000000	
48.363582	5.000000	
48.383841	8.000000	
48.404101	9.000000	
48.424361	2.000000	
48.444620	12.000000	
48.464880	8.000000	
48.485140	7.000000	
48.505400	5.000000	
48.525659	8.000000	
48.545919	6.000000	
48.566179	5.000000	
48.586438	6.000000	
48.606698	9.000000	
48.626958	4.000000	
48.647218	11.000000	
48.667477	7.000000	
48.687737	4.000000	
48.707997	7.000000	
48.728256	6.000000	
48.748516	7.000000	
48.768776	7.000000	
48.789035	5.000000	
48.809295	5.000000	
48.829555	8.000000	
48.849815	4.000000	
48.870074	6.000000	
48.890334	7.000000	
48.910594	8.000000	
48.930853	6.000000	
48.951113	8.000000	
48.971373	5.000000	
48.991632	6.000000	
49.011892	6.000000	
49.032152	7.000000	
49.052412	0.000000	
49.072671	8.000000	
49.092931	5.000000	
49.113191	4.000000	
49.133450	7.000000	
49.153710	9.000000	
49.173970	6.000000	
49.194229	3.000000	
49.214489	7.000000	
49.234749	5.000000	
49.255009	4.000000	
49.275268	2.000000	
49.295528	7.000000	
49.315788	5.000000	
49.336047	6.000000	
49.356307	7.000000	
49.376567	2.000000	
49.396826	5.000000	
49.417086	3.000000	
49.437346	5.000000	
49.457606	3.000000	
49.477865	5.000000	
49.498125	4.000000	
49.518385	6.000000	
49.538644	5.000000	
49.558904	4.000000	
49.579164	6.000000	
49.599423	8.000000	
49.619683	5.000000	
49.639943	8.000000	
49.660203	9.000000	
49.680462	5.000000	
49.700722	3.000000	
49.720982	6.000000	
49.741241	7.000000	
49.761501	5.000000	
49.781761	0.000000	
49.802020	2.000000	
49.822280	8.000000	
49.842540	6.000000	
49.862800	6.000000	
49.883059	2.000000	
49.903319	5.000000	
49.923579	6.000000	
49.943838	1.000000	
49.964098	5.000000	
49.984358	5.000000	
50.004617	2.000000	
50.024877	5.000000	
50.045137	5.000000	
50.065397	9.000000	
50.085656	6.000000	
50.105916	7.000000	
50.126176	4.000000	
50.146435	7.000000	
50.166695	3.000000	
50.186955	4.000000	
50.207214	3.000000	
50.227474	7.000000	
50.247734	1.000000	
50.267994	7.000000	
50.288253	7.000000	
50.308513	3.000000	
50.328773	6.000000	
50.349032	3.000000	
50.369292	2.000000	
50.389552	5.000000	
50.409812	8.000000	
50.430071	1.000000	
50.450331	1.000000	
50.470591	9.000000	
50.490850	2.000000	
50.511110	8.000000	
50.531370	3.000000	
50.551629	7.000000	
50.571889	7.000000	
50.592149	3.000000	
50.612409	8.000000	
50.632668	4.000000	
50.652928	4.000000	
50.673188	8.000000	
50.693447	2.000000	
50.713707	5.000000	
50.733967	6.000000	
50.754226	5.000000	
50.774486	5.000000	
50.794746	6.000000	
50.815006	3.000000	
50.835265	7.000000	
50.855525	5.000000	
50.875785	6.000000	
50.896044	5.000000	
50.916304	7.000000	
50.936564	1.000000	
50.956823	6.000000	
50.977083	1.000000	
50.997343	9.000000	
51.017603	5.000000	
51.037862	3.000000	
51.058122	3.000000	
51.078382	0.000000	
51.098641	2.000000	
51.118901	4.000000	
51.139161	5.000000	
51.159420	10.000000	
51.179680	6.000000	
51.199940	4.000000	
51.220200	3.000000	
51.240459	7.000000	
51.260719	5.000000	
51.280979	5.000000	
51.301238	6.000000	
51.321498	6.000000	
51.341758	5.000000	
51.362017	3.000000	
51.382277	5.000000	
51.402537	6.000000	
51.422797	7.000000	
51.443056	5.000000	
51.463316	3.000000	
51.483576	8.000000	
51.503835	5.000000	
51.524095	3.000000	
51.544355	7.000000	
51.564614	5.000000	
51.584874	7.000000	
51.605134	4.000000	
51.625394	3.000000	
51.645653	2.000000	
51.665913	4.000000	
51.686173	5.000000	
51.706432	5.000000	
51.726692	4.000000	
51.746952	5.000000	
51.767211	4.000000	
51.787471	4.000000	
51.807731	8.000000	
51.827991	3.000000	
51.848250	7.000000	
51.868510	5.000000	
51.888770	5.000000	
51.909029	7.000000	
51.929289	2.000000	
51.949549	4.000000	
51.969809	1.000000	
51.990068	8.000000	
52.010328	6.000000	
52.030588	4.000000	
52.050847	4.000000	
52.071107	4.000000	
52.091367	4.000000	
52.111626	7.000000	
52.131886	2.000000	
52.152146	5.000000	
52.172406	1.000000	
52.192665	8.000000	
52.212925	4.000000	
52.233185	3.000000	
52.253444	5.000000	
52.273704	4.000000	
52.293964	5.000000	
52.314223	1.000000	
52.334483	7.000000	
52.354743	4.000000	
52.375003	7.000000	
52.395262	6.000000	
52.415522	5.000000	
52.435782	4.000000	
52.456041	7.000000	
52.476301	7.000000	
52.496561	7.000000	
52.516820	1.000000	
52.537080	7.000000	
52.557340	9.000000	
52.577600	8.000000	
52.597859	4.000000	
52.618119	11.000000	
52.638379	4.000000	
52.658638	5.000000	
52.678898	3.000000	
52.699158	6.000000	
52.719417	2.000000	
52.739677	4.000000	
52.759937	6.000000	
52.780197	4.000000	
52.800456	5.000000	
52.820716	2.000000	
52.840976	5.000000	
52.861235	8.000000	
52.881495	3.000000	
52.901755	4.000000	
52.922014	9.000000	
52.942274	3.000000	
52.962534	1.000000	
52.982794	8.000000	
53.003053	5.000000	
53.023313	2.000000	
53.043573	5.000000	
53.063832	5.000000	
53.084092	2.000000	
53.104352	4.000000	
53.124611	7.000000	
53.144871	7.000000	
53.165131	6.000000	
53.185391	4.000000	
53.205650	9.000000	
53.225910	2.000000	
53.246170	4.000000	
53.266429	6.000000	
53.286689	2.000000	
53.306949	3.000000	
53.327208	3.000000	
53.347468	4.000000	
53.367728	5.000000	
53.387988	5.000000	
53.408247	6.000000	
53.428507	9.000000	
53.448767	6.000000	
53.469026	2.000000	
53.489286	7.000000	
53.509546	4.000000	
53.529805	6.000000	
53.550065	4.000000	
53.570325	5.000000	
53.590585	4.000000	
53.610844	5.000000	
53.631104	4.000000	
53.651364	7.000000	
53.671623	4.000000	
53.691883	4.000000	
53.712143	8.000000	
53.732403	8.000000	
53.752662	6.000000	
53.772922	4.000000	
53.793182	5.000000	
53.813441	4.000000	
53.833701	6.000000	
53.853961	3.000000	
53.874220	5.000000	
53.894480	6.000000	
53.914740	2.000000	
53.935000	7.000000	
53.955259	5.000000	
53.975519	7.000000	
53.995779	4.000000	
54.016038	5.000000	
54.036298	7.000000	
54.056558	7.000000	
54.076817	4.000000	
54.097077	3.000000	
54.117337	8.000000	
54.137597	5.000000	
54.157856	6.000000	
54.178116	5.000000	
54.198376	6.000000	
54.218635	6.000000	
54.238895	1.000000	
54.259155	5.000000	
54.279414	10.000000	
54.299674	5.000000	
54.319934	4.000000	
54.340194	6.000000	
54.360453	6.000000	
54.380713	12.000000	
54.400973	4.000000	
54.421232	5.000000	
54.441492	3.000000	
54.461752	7.000000	
54.482011	7.000000	
54.502271	5.000000	
54.522531	1.000000	
54.542791	8.000000	
54.563050	6.000000	
54.583310	9.000000	
54.603570	8.000000	
54.623829	6.000000	
54.644089	7.000000	
54.664349	8.000000	
54.684608	8.000000	
54.704868	5.000000	
54.725128	3.000000	
54.745388	2.000000	
54.765647	4.000000	
54.785907	4.000000	
54.806167	8.000000	
54.826426	4.000000	
54.846686	4.000000	
54.866946	3.000000	
54.887205	2.000000	
54.907465	3.000000	
54.927725	5.000000	
54.947985	4.000000	
54.968244	9.000000	
54.988504	8.000000	
55.008764	7.000000	
55.029023	3.000000	
55.049283	7.000000	
55.069543	5.000000	
55.089802	3.000000	
55.110062	6.000000	
55.130322	5.000000	
55.150582	8.000000	
55.170841	7.000000	
55.191101	4.000000	
55.211361	1.000000	
55.231620	7.000000	
55.251880	3.000000	
55.272140	5.000000	
55.292399	7.000000	
55.312659	4.000000	
55.332919	3.000000	
55.353179	3.000000	
55.373438	8.000000	
55.393698	5.000000	
55.413958	4.000000	
55.434217	4.000000	
55.454477	4.000000	
55.474737	11.000000	
55.494997	6.000000	
55.515256	5.000000	
55.535516	6.000000	
55.555776	5.000000	
55.576035	4.000000	
55.596295	3.000000	
55.616555	4.000000	
55.636814	6.000000	
55.657074	2.000000	
55.677334	6.000000	
55.697594	7.000000	
55.717853	2.000000	
55.738113	7.000000	
55.758373	2.000000	
55.778632	4.000000	
55.798892	3.000000	
55.819152	5.000000	
55.839411	5.000000	
55.859671	6.000000	
55.879931	7.000000	
55.900191	8.000000	
55.920450	1.000000	
55.940710	7.000000	
55.960970	4.000000	
55.981229	5.000000	
56.001489	4.000000	
56.021749	9.000000	
56.042008	5.000000	
56.062268	6.000000	
56.082528	2.000000	
56.102788	7.000000	
56.123047	4.000000	
56.143307	0.000000	
56.163567	3.000000	
56.183826	6.000000	
56.204086	1.000000	
56.224346	5.000000	
56.244605	7.000000	
56.264865	7.000000	
56.285125	14.000000	
56.305385	12.000000	
56.325644	11.000000	
56.345904	13.000000	
56.366164	12.000000	
56.386423	9.000000	
56.406683	13.000000	
56.426943	4.000000	
56.447202	7.000000	
56.467462	9.000000	
56.487722	5.000000	
56.507982	8.000000	
56.528241	6.000000	
56.548501	7.000000	
56.568761	6.000000	
56.589020	7.000000	
56.609280	4.000000	
56.629540	7.000000	
56.649799	6.000000	
56.670059	7.000000	
56.690319	5.000000	
56.710579	6.000000	
56.730838	4.000000	
56.751098	6.000000	
56.771358	6.000000	
56.791617	9.000000	
56.811877	6.000000	
56.832137	10.000000	
56.852396	4.000000	
56.872656	3.000000	
56.892916	6.000000	
56.913176	4.000000	
56.933435	8.000000	
56.953695	6.000000	
56.973955	5.000000	
56.994214	4.000000	
57.014474	10.000000	
57.034734	6.000000	
57.054994	5.000000	
57.075253	6.000000	
57.095513	5.000000	
57.115773	4.000000	
57.136032	6.000000	
57.156292	6.000000	
57.176552	3.000000	
57.196811	12.000000	
57.217071	8.000000	
57.237331	7.000000	
57.257591	8.000000	
57.277850	8.000000	
57.298110	5.000000	
57.318370	8.000000	
57.338629	7.000000	
57.358889	6.000000	
57.379149	6.000000	
57.399408	3.000000	
57.419668	6.000000	
57.439928	2.000000	
57.460188	7.000000	
57.480447	7.000000	
57.500707	8.000000	
57.520967	5.000000	
57.541226	4.000000	
57.561486	4.000000	
57.581746	3.000000	
57.602005	6.000000	
57.622265	4.000000	
57.642525	4.000000	
57.662785	4.000000	
57.683044	8.000000	
57.703304	4.000000	
57.723564	10.000000	
57.743823	9.000000	
57.764083	4.000000	
57.784343	5.000000	
57.804602	5.000000	
57.824862	9.000000	
57.845122	8.000000	
57.865382	3.000000	
57.885641	7.000000	
57.905901	3.000000	
57.926161	1.000000	
57.946420	7.000000	
57.966680	3.000000	
57.986940	5.000000	
58.007199	1.000000	
58.027459	4.000000	
58.047719	3.000000	
58.067979	8.000000	
58.088238	7.000000	
58.108498	3.000000	
58.128758	9.000000	
58.149017	11.000000	
58.169277	3.000000	
58.189537	2.000000	
58.209796	7.000000	
58.230056	6.000000	
58.250316	4.000000	
58.270576	7.000000	
58.290835	5.000000	
58.311095	4.000000	
58.331355	7.000000	
58.351614	7.000000	
58.371874	4.000000	
58.392134	12.000000	
58.412393	8.000000	
58.432653	5.000000	
58.452913	4.000000	
58.473173	6.000000	
58.493432	0.000000	
58.513692	9.000000	
58.533952	3.000000	
58.554211	9.000000	
58.574471	8.000000	
58.594731	6.000000	
58.614990	8.000000	
58.635250	6.000000	
58.655510	4.000000	
58.675770	6.000000	
58.696029	5.000000	
58.716289	2.000000	
58.736549	10.000000	
58.756808	5.000000	
58.777068	8.000000	
58.797328	6.000000	
58.817588	7.000000	
58.837847	4.000000	
58.858107	4.000000	
58.878367	4.000000	
58.898626	2.000000	
58.918886	6.000000	
58.939146	6.000000	
58.959405	4.000000	
58.979665	4.000000	
58.999925	5.000000	
59.020185	6.000000	
59.040444	3.000000	
59.060704	6.000000	
59.080964	2.000000	
59.101223	10.000000	
59.121483	6.000000	
59.141743	4.000000	
59.162002	3.000000	
59.182262	7.000000	
59.202522	4.000000	
59.222782	5.000000	
59.243041	4.000000	
59.263301	3.000000	
59.283561	4.000000	
59.303820	5.000000	
59.324080	3.000000	
59.344340	3.000000	
59.364599	5.000000	
59.384859	6.000000	
59.405119	5.000000	
59.425379	8.000000	
59.445638	3.000000	
59.465898	0.000000	
59.486158	6.000000	
59.506417	6.000000	
59.526677	8.000000	
59.546937	3.000000	
59.567196	9.000000	
59.587456	10.000000	
59.607716	1.000000	
59.627976	3.000000	
59.648235	6.000000	
59.668495	7.000000	
59.688755	6.000000	
59.709014	7.000000	
59.729274	5.000000	
59.749534	8.000000	
59.769793	6.000000	
59.790053	3.000000	
59.810313	2.000000	
59.830573	2.000000	
59.850832	5.000000	
59.871092	4.000000	
59.891352	11.000000	
59.911611	10.000000	
59.931871	7.000000	
59.952131	4.000000	
59.972390	2.000000	
59.992650	6.000000	
60.012910	9.000000	
60.033170	3.000000	
60.053429	6.000000	
60.073689	9.000000	
60.093949	6.000000	
60.114208	6.000000	
60.134468	4.000000	
60.154728	4.000000	
60.174987	8.000000	
60.195247	5.000000	
60.215507	7.000000	
60.235767	8.000000	
60.256026	10.000000	
60.276286	8.000000	
60.296546	6.000000	
60.316805	7.000000	
60.337065	9.000000	
60.357325	7.000000	
60.377585	6.000000	
60.397844	7.000000	
60.418104	4.000000	
60.438364	10.000000	
60.458623	7.000000	
60.478883	5.000000	
60.499143	8.000000	
60.519402	6.000000	
60.539662	2.000000	
60.559922	3.000000	
60.580182	8.000000	
60.600441	8.000000	
60.620701	9.000000	
60.640961	5.000000	
60.661220	6.000000	
60.681480	2.000000	
60.701740	6.000000	
60.721999	5.000000	
60.742259	9.000000	
60.762519	10.000000	
60.782779	6.000000	
60.803038	2.000000	
60.823298	6.000000	
60.843558	2.000000	
60.863817	7.000000	
60.884077	5.000000	
60.904337	4.000000	
60.924596	5.000000	
60.944856	2.000000	
60.965116	6.000000	
60.985376	5.000000	
61.005635	4.000000	
61.025895	5.000000	
61.046155	1.000000	
61.066414	12.000000	
61.086674	7.000000	
61.106934	6.000000	
61.127193	7.000000	
61.147453	8.000000	
61.167713	4.000000	
61.187973	6.000000	
61.208232	9.000000	
61.228492	13.000000	
61.248752	7.000000	
61.269011	8.000000	
61.289271	7.000000	
61.309531	5.000000	
61.329790	5.000000	
61.350050	5.000000	
61.370310	9.000000	
61.390570	6.000000	
61.410829	8.000000	
61.431089	3.000000	
61.451349	9.000000	
61.471608	10.000000	
61.491868	4.000000	
61.512128	3.000000	
61.532387	6.000000	
61.552647	8.000000	
61.572907	7.000000	
61.593167	11.000000	
61.613426	19.000000	
61.633686	10.000000	
61.653946	19.000000	
61.674205	20.000000	
61.694465	18.000000	
61.714725	21.000000	
61.734984	18.000000	
61.755244	13.000000	
61.775504	13.000000	
61.795764	17.000000	
61.816023	19.000000	
61.836283	9.000000	
61.856543	3.000000	
61.876802	2.000000	
61.897062	12.000000	
61.917322	2.000000	
61.937581	9.000000	
61.957841	8.000000	
61.978101	7.000000	
61.998361	7.000000	
62.018620	10.000000	
62.038880	4.000000	
62.059140	4.000000	
62.079399	12.000000	
62.099659	5.000000	
62.119919	11.000000	
62.140179	6.000000	
62.160438	7.000000	
62.180698	8.000000	
62.200958	9.000000	
62.221217	10.000000	
62.241477	7.000000	
62.261737	3.000000	
62.281996	11.000000	
62.302256	3.000000	
62.322516	8.000000	
62.342776	9.000000	
62.363035	11.000000	
62.383295	9.000000	
62.403555	10.000000	
62.423814	6.000000	
62.444074	5.000000	
62.464334	8.000000	
62.484593	4.000000	
62.504853	7.000000	
62.525113	11.000000	
62.545373	7.000000	
62.565632	6.000000	
62.585892	5.000000	
62.606152	8.000000	
62.626411	7.000000	
62.646671	3.000000	
62.666931	7.000000	
62.687190	5.000000	
62.707450	14.000000	
62.727710	9.000000	
62.747970	5.000000	
62.768229	4.000000	
62.788489	1.000000	
62.808749	9.000000	
62.829008	10.000000	
62.849268	7.000000	
62.869528	9.000000	
62.889787	8.000000	
62.910047	6.000000	
62.930307	12.000000	
62.950567	8.000000	
62.970826	10.000000	
62.991086	11.000000	
63.011346	9.000000	
63.031605	7.000000	
63.051865	9.000000	
63.072125	10.000000	
63.092384	8.000000	
63.112644	8.000000	
63.132904	4.000000	
63.153164	4.000000	
63.173423	13.000000	
63.193683	5.000000	
63.213943	6.000000	
63.234202	9.000000	
63.254462	14.000000	
63.274722	7.000000	
63.294981	5.000000	
63.315241	8.000000	
63.335501	7.000000	
63.355761	8.000000	
63.376020	11.000000	
63.396280	5.000000	
63.416540	11.000000	
63.436799	10.000000	
63.457059	8.000000	
63.477319	12.000000	
63.497578	12.000000	
63.517838	6.000000	
63.538098	6.000000	
63.558358	12.000000	
63.578617	9.000000	
63.598877	12.000000	
63.619137	9.000000	
63.639396	8.000000	
63.659656	7.000000	
63.679916	9.000000	
63.700175	11.000000	
63.720435	5.000000	
63.740695	7.000000	
63.760955	9.000000	
63.781214	8.000000	
63.801474	5.000000	
63.821734	8.000000	
63.841993	10.000000	
63.862253	11.000000	
63.882513	4.000000	
63.902773	6.000000	
63.923032	13.000000	
63.943292	6.000000	
63.963552	10.000000	
63.983811	14.000000	
64.004071	14.000000	
64.024331	11.000000	
64.044590	15.000000	
64.064850	12.000000	
64.085110	12.000000	
64.105370	10.000000	
64.125629	11.000000	
64.145889	10.000000	
64.166149	11.000000	
64.186408	8.000000	
64.206668	12.000000	
64.226928	11.000000	
64.247187	10.000000	
64.267447	12.000000	
64.287707	10.000000	
64.307967	15.000000	
64.328226	11.000000	
64.348486	11.000000	
64.368746	13.000000	
64.389005	11.000000	
64.409265	16.000000	
64.429525	9.000000	
64.449784	11.000000	
64.470044	9.000000	
64.490304	15.000000	
64.510564	19.000000	
64.530823	22.000000	
64.551083	9.000000	
64.571343	13.000000	
64.591602	10.000000	
64.611862	15.000000	
64.632122	13.000000	
64.652381	13.000000	
64.672641	5.000000	
64.692901	7.000000	
64.713161	14.000000	
64.733420	10.000000	
64.753680	8.000000	
64.773940	8.000000	
64.794199	16.000000	
64.814459	17.000000	
64.834719	15.000000	
64.854978	18.000000	
64.875238	12.000000	
64.895498	12.000000	
64.915758	15.000000	
64.936017	10.000000	
64.956277	10.000000	
64.976537	15.000000	
64.996796	8.000000	
65.017056	15.000000	
65.037316	12.000000	
65.057575	22.000000	
65.077835	17.000000	
65.098095	13.000000	
65.118355	10.000000	
65.138614	13.000000	
65.158874	9.000000	
65.179134	16.000000	
65.199393	12.000000	
65.219653	13.000000	
65.239913	13.000000	
65.260172	15.000000	
65.280432	22.000000	
65.300692	13.000000	
65.320952	14.000000	
65.341211	13.000000	
65.361471	13.000000	
65.381731	16.000000	
65.401990	15.000000	
65.422250	14.000000	
65.442510	12.000000	
65.462770	17.000000	
65.483029	21.000000	
65.503289	18.000000	
65.523549	13.000000	
65.543808	16.000000	
65.564068	18.000000	
65.584328	17.000000	
65.604587	27.000000	
65.624847	15.000000	
65.645107	16.000000	
65.665367	16.000000	
65.685626	23.000000	
65.705886	23.000000	
65.726146	30.000000	
65.746405	26.000000	
65.766665	34.000000	
65.786925	41.000000	
65.807184	54.000000	
65.827444	69.000000	
65.847704	54.000000	
65.867964	53.000000	
65.888223	40.000000	
65.908483	59.000000	
65.928743	44.000000	
65.949002	55.000000	
65.969262	32.000000	
65.989522	36.000000	
66.009781	35.000000	
66.030041	24.000000	
66.050301	22.000000	
66.070561	30.000000	
66.090820	21.000000	
66.111080	24.000000	
66.131340	27.000000	
66.151599	25.000000	
66.171859	27.000000	
66.192119	34.000000	
66.212378	31.000000	
66.232638	24.000000	
66.252898	34.000000	
66.273158	39.000000	
66.293417	36.000000	
66.313677	62.000000	
66.333937	95.000000	
66.354196	153.000000	
66.374456	219.000000	
66.394716	383.000000	
66.414975	478.000000	
66.435235	579.000000	
66.455495	629.000000	
66.475755	620.000000	
66.496014	690.000000	
66.516274	651.000000	
66.536534	680.000000	
66.556793	634.000000	
66.577053	636.000000	
66.597313	534.000000	
66.617572	496.000000	
66.637832	503.000000	
66.658092	425.000000	
66.678352	510.000000	
66.698611	437.000000	
66.718871	448.000000	
66.739131	454.000000	
66.759390	447.000000	
66.779650	416.000000	
66.799910	449.000000	
66.820169	405.000000	
66.840429	420.000000	
66.860689	455.000000	
66.880949	444.000000	
66.901208	458.000000	
66.921468	382.000000	
66.941728	460.000000	
66.961987	461.000000	
66.982247	438.000000	
67.002507	487.000000	
67.022766	440.000000	
67.043026	466.000000	
67.063286	437.000000	
67.083546	492.000000	
67.103805	487.000000	
67.124065	485.000000	
67.144325	491.000000	
67.164584	488.000000	
67.184844	488.000000	
67.205104	438.000000	
67.225364	525.000000	
67.245623	498.000000	
67.265883	477.000000	
67.286143	515.000000	
67.306402	508.000000	
67.326662	500.000000	
67.346922	507.000000	
67.367181	503.000000	
67.387441	523.000000	
67.407701	529.000000	
67.427961	555.000000	
67.448220	486.000000	
67.468480	515.000000	
67.488740	564.000000	
67.508999	530.000000	
67.529259	565.000000	
67.549519	543.000000	
67.569778	572.000000	
67.590038	540.000000	
67.610298	540.000000	
67.630558	569.000000	
67.650817	566.000000	
67.671077	584.000000	
67.691337	569.000000	
67.711596	574.000000	
67.731856	586.000000	
67.752116	587.000000	
67.772375	627.000000	
67.792635	650.000000	
67.812895	607.000000	
67.833155	572.000000	
67.853414	576.000000	
67.873674	665.000000	
67.893934	571.000000	
67.914193	642.000000	
67.934453	627.000000	
67.954713	700.000000	
67.974972	668.000000	
67.995232	671.000000	
68.015492	662.000000	
68.035752	690.000000	
68.056011	652.000000	
68.076271	695.000000	
68.096531	740.000000	
68.116790	724.000000	
68.137050	747.000000	
68.157310	735.000000	
68.177569	796.000000	
68.197829	743.000000	
68.218089	839.000000	
68.238349	761.000000	
68.258608	850.000000	
68.278868	844.000000	
68.299128	886.000000	
68.319387	862.000000	
68.339647	888.000000	
68.359907	850.000000	
68.380166	897.000000	
68.400426	948.000000	
68.420686	935.000000	
68.440946	963.000000	
68.461205	993.000000	
68.481465	1076.000000	
68.501725	1063.000000	
68.521984	1075.000000	
68.542244	1097.000000	
68.562504	1201.000000	
68.582763	1266.000000	
68.603023	1269.000000	
68.623283	1547.000000	
68.643543	1536.000000	
68.663802	1800.000000	
68.684062	2094.000000	
68.704322	2360.000000	
68.724581	2634.000000	
68.744841	3020.000000	
68.765101	3217.000000	
68.785361	3461.000000	
68.805620	3676.000000	
68.825880	3834.000000	
68.846140	3885.000000	
68.866399	3966.000000	
68.886659	4187.000000	
68.906919	4553.000000	
68.927178	5306.000000	
68.947438	6357.000000	
68.967698	8244.000000	
68.987958	11592.000000	
69.008217	19114.000000	
69.028477	44948.000000	
69.048737	103789.000000	
69.068996	141753.000000	
69.089256	158504.000000	
69.109516	164467.000000	
69.129775	164764.000000	
69.150035	161876.000000	
69.170295	153182.000000	
69.190555	122499.000000	
69.210814	77462.000000	
69.231074	57215.000000	
69.251334	68207.000000	
69.271593	78274.000000	
69.291853	82012.000000	
69.312113	83131.000000	
69.332372	82656.000000	
69.352632	79828.000000	
69.372892	70948.000000	
69.393152	49561.000000	
69.413411	26409.000000	
69.433671	12787.000000	
69.453931	7447.000000	
69.474190	5241.000000	
69.494450	4221.000000	
69.514710	3561.000000	
69.534969	3088.000000	
69.555229	2659.000000	
69.575489	2355.000000	
69.595749	2114.000000	
69.616008	1874.000000	
69.636268	1808.000000	
69.656528	1551.000000	
69.676787	1442.000000	
69.697047	1459.000000	
69.717307	1261.000000	
69.737566	1197.000000	
69.757826	1143.000000	
69.778086	1032.000000	
69.798346	1037.000000	
69.818605	948.000000	
69.838865	934.000000	
69.859125	910.000000	
69.879384	877.000000	
69.899644	811.000000	
69.919904	764.000000	
69.940163	751.000000	
69.960423	724.000000	
69.980683	712.000000	
70.000943	688.000000	
70.021202	649.000000	
70.041462	651.000000	
70.061722	607.000000	
70.081981	588.000000	
70.102241	583.000000	
70.122501	589.000000	
70.142760	571.000000	
70.163020	537.000000	
70.183280	543.000000	
70.203540	489.000000	
70.223799	457.000000	
70.244059	428.000000	
70.264319	492.000000	
70.284578	411.000000	
70.304838	461.000000	
70.325098	462.000000	
70.345357	428.000000	
70.365617	397.000000	
70.385877	393.000000	
70.406137	385.000000	
70.426396	380.000000	
70.446656	361.000000	
70.466916	332.000000	
70.487175	358.000000	
70.507435	309.000000	
70.527695	354.000000	
70.547955	317.000000	
70.568214	297.000000	
70.588474	278.000000	
70.608734	308.000000	
70.628993	288.000000	
70.649253	272.000000	
70.669513	262.000000	
70.689772	232.000000	
70.710032	280.000000	
70.730292	247.000000	
70.750552	209.000000	
70.770811	239.000000	
70.791071	223.000000	
70.811331	216.000000	
70.831590	226.000000	
70.851850	227.000000	
70.872110	210.000000	
70.892369	212.000000	
70.912629	222.000000	
70.932889	208.000000	
70.953149	191.000000	
70.973408	184.000000	
70.993668	169.000000	
71.013928	166.000000	
71.034187	171.000000	
71.054447	170.000000	
71.074707	155.000000	
71.094966	174.000000	
71.115226	165.000000	
71.135486	159.000000	
71.155746	176.000000	
71.176005	153.000000	
71.196265	166.000000	
71.216525	141.000000	
71.236784	141.000000	
71.257044	142.000000	
71.277304	142.000000	
71.297563	153.000000	
71.317823	127.000000	
71.338083	136.000000	
71.358343	126.000000	
71.378602	141.000000	
71.398862	130.000000	
71.419122	110.000000	
71.439381	101.000000	
71.459641	130.000000	
71.479901	99.000000	
71.500160	118.000000	
71.520420	110.000000	
71.540680	88.000000	
71.560940	94.000000	
71.581199	114.000000	
71.601459	107.000000	
71.621719	91.000000	
71.641978	97.000000	
71.662238	94.000000	
71.682498	89.000000	
71.702757	86.000000	
71.723017	94.000000	
71.743277	89.000000	
71.763537	101.000000	
71.783796	89.000000	
71.804056	66.000000	
71.824316	80.000000	
71.844575	77.000000	
71.864835	103.000000	
71.885095	81.000000	
71.905354	81.000000	
71.925614	80.000000	
71.945874	78.000000	
71.966134	75.000000	
71.986393	66.000000	
72.006653	67.000000	
72.026913	79.000000	
72.047172	73.000000	
72.067432	61.000000	
72.087692	63.000000	
72.107951	72.000000	
72.128211	58.000000	
72.148471	74.000000	
72.168731	65.000000	
72.188990	65.000000	
72.209250	70.000000	
72.229510	65.000000	
72.249769	72.000000	
72.270029	65.000000	
72.290289	60.000000	
72.310549	72.000000	
72.330808	59.000000	
72.351068	55.000000	
72.371328	74.000000	
72.391587	52.000000	
72.411847	59.000000	
72.432107	70.000000	
72.452366	58.000000	
72.472626	59.000000	
72.492886	63.000000	
72.513146	60.000000	
72.533405	60.000000	
72.553665	52.000000	
72.573925	44.000000	
72.594184	54.000000	
72.614444	56.000000	
72.634704	54.000000	
72.654963	54.000000	
72.675223	46.000000	
72.695483	44.000000	
72.715743	58.000000	
72.736002	53.000000	
72.756262	50.000000	
72.776522	60.000000	
72.796781	44.000000	
72.817041	48.000000	
72.837301	50.000000	
72.857560	40.000000	
72.877820	42.000000	
72.898080	42.000000	
72.918340	45.000000	
72.938599	45.000000	
72.958859	45.000000	
72.979119	54.000000	
72.999378	46.000000	
73.019638	36.000000	
73.039898	56.000000	
73.060157	33.000000	
73.080417	47.000000	
73.100677	40.000000	
73.120937	38.000000	
73.141196	29.000000	
73.161456	35.000000	
73.181716	32.000000	
73.201975	48.000000	
73.222235	53.000000	
73.242495	28.000000	
73.262754	45.000000	
73.283014	56.000000	
73.303274	40.000000	
73.323534	31.000000	
73.343793	42.000000	
73.364053	28.000000	
73.384313	36.000000	
73.404572	32.000000	
73.424832	31.000000	
73.445092	27.000000	
73.465351	40.000000	
73.485611	34.000000	
73.505871	33.000000	
73.526131	31.000000	
73.546390	27.000000	
73.566650	29.000000	
73.586910	36.000000	
73.607169	30.000000	
73.627429	36.000000	
73.647689	19.000000	
73.667948	43.000000	
73.688208	32.000000	
73.708468	34.000000	
73.728728	25.000000	
73.748987	29.000000	
73.769247	32.000000	
73.789507	39.000000	
73.809766	29.000000	
73.830026	30.000000	
73.850286	23.000000	
73.870546	34.000000	
73.890805	22.000000	
73.911065	35.000000	
73.931325	31.000000	
73.951584	32.000000	
73.971844	31.000000	
73.992104	25.000000	
74.012363	28.000000	
74.032623	27.000000	
74.052883	33.000000	
74.073143	19.000000	
74.093402	32.000000	
74.113662	26.000000	
74.133922	25.000000	
74.154181	31.000000	
74.174441	22.000000	
74.194701	27.000000	
74.214960	33.000000	
74.235220	31.000000	
74.255480	28.000000	
74.275740	24.000000	
74.295999	22.000000	
74.316259	25.000000	
74.336519	21.000000	
74.356778	27.000000	
74.377038	38.000000	
74.397298	30.000000	
74.417557	21.000000	
74.437817	25.000000	
74.458077	36.000000	
74.478337	21.000000	
74.498596	18.000000	
74.518856	35.000000	
74.539116	23.000000	
74.559375	30.000000	
74.579635	28.000000	
74.599895	20.000000	
74.620154	19.000000	
74.640414	22.000000	
74.660674	32.000000	
74.680934	23.000000	
74.701193	19.000000	
74.721453	22.000000	
74.741713	20.000000	
74.761972	26.000000	
74.782232	17.000000	
74.802492	13.000000	
74.822751	25.000000	
74.843011	17.000000	
74.863271	24.000000	
74.883531	16.000000	
74.903790	18.000000	
74.924050	20.000000	
74.944310	18.000000	
74.964569	22.000000	
74.984829	24.000000	
75.005089	27.000000	
75.025348	15.000000	
75.045608	19.000000	
75.065868	17.000000	
75.086128	22.000000	
75.106387	14.000000	
75.126647	24.000000	
75.146907	21.000000	
75.167166	13.000000	
75.187426	23.000000	
75.207686	24.000000	
75.227945	20.000000	
75.248205	19.000000	
75.268465	28.000000	
75.288725	16.000000	
75.308984	22.000000	
75.329244	14.000000	
75.349504	11.000000	
75.369763	16.000000	
75.390023	18.000000	
75.410283	20.000000	
75.430542	21.000000	
75.450802	17.000000	
75.471062	14.000000	
75.491322	12.000000	
75.511581	11.000000	
75.531841	19.000000	
75.552101	7.000000	
75.572360	20.000000	
75.592620	18.000000	
75.612880	16.000000	
75.633140	18.000000	
75.653399	20.000000	
75.673659	23.000000	
75.693919	19.000000	
75.714178	23.000000	
75.734438	15.000000	
75.754698	18.000000	
75.774957	16.000000	
75.795217	16.000000	
75.815477	18.000000	
75.835737	19.000000	
75.855996	21.000000	
75.876256	21.000000	
75.896516	13.000000	
75.916775	17.000000	
75.937035	13.000000	
75.957295	22.000000	
75.977554	9.000000	
75.997814	16.000000	
76.018074	12.000000	
76.038334	26.000000	
76.058593	20.000000	
76.078853	27.000000	
76.099113	27.000000	
76.119372	22.000000	
76.139632	22.000000	
76.159892	25.000000	
76.180151	19.000000	
76.200411	30.000000	
76.220671	30.000000	
76.240931	28.000000	
76.261190	30.000000	
76.281450	34.000000	
76.301710	36.000000	
76.321969	29.000000	
76.342229	33.000000	
76.362489	30.000000	
76.382748	33.000000	
76.403008	29.000000	
76.423268	27.000000	
76.443528	21.000000	
76.463787	19.000000	
76.484047	27.000000	
76.504307	21.000000	
76.524566	17.000000	
76.544826	25.000000	
76.565086	14.000000	
76.585345	29.000000	
76.605605	10.000000	
76.625865	9.000000	
76.646125	17.000000	
76.666384	16.000000	
76.686644	14.000000	
76.706904	20.000000	
76.727163	14.000000	
76.747423	14.000000	
76.767683	17.000000	
76.787942	21.000000	
76.808202	17.000000	
76.828462	10.000000	
76.848722	8.000000	
76.868981	10.000000	
76.889241	14.000000	
76.909501	14.000000	
76.929760	10.000000	
76.950020	10.000000	
76.970280	7.000000	
76.990539	10.000000	
77.010799	14.000000	
77.031059	16.000000	
77.051319	11.000000	
77.071578	14.000000	
77.091838	16.000000	
77.112098	9.000000	
77.132357	14.000000	
77.152617	8.000000	
77.172877	10.000000	
77.193137	7.000000	
77.213396	13.000000	
77.233656	7.000000	
77.253916	9.000000	
77.274175	7.000000	
77.294435	9.000000	
77.314695	6.000000	
77.334954	11.000000	
77.355214	10.000000	
77.375474	7.000000	
77.395734	11.000000	
77.415993	16.000000	
77.436253	7.000000	
77.456513	10.000000	
77.476772	11.000000	
77.497032	9.000000	
77.517292	10.000000	
77.537551	11.000000	
77.557811	9.000000	
77.578071	14.000000	
77.598331	16.000000	
77.618590	9.000000	
77.638850	13.000000	
77.659110	10.000000	
77.679369	11.000000	
77.699629	13.000000	
77.719889	18.000000	
77.740148	10.000000	
77.760408	16.000000	
77.780668	8.000000	
77.800928	13.000000	
77.821187	13.000000	
77.841447	8.000000	
77.861707	6.000000	
77.881966	8.000000	
77.902226	9.000000	
77.922486	5.000000	
77.942745	11.000000	
77.963005	11.000000	
77.983265	8.000000	
78.003525	10.000000	
78.023784	9.000000	
78.044044	9.000000	
78.064304	6.000000	
78.084563	8.000000	
78.104823	10.000000	
78.125083	9.000000	
78.145342	7.000000	
78.165602	11.000000	
78.185862	13.000000	
78.206122	7.000000	
78.226381	7.000000	
78.246641	10.000000	
78.266901	9.000000	
78.287160	8.000000	
78.307420	9.000000	
78.327680	10.000000	
78.347939	10.000000	
78.368199	7.000000	
78.388459	9.000000	
78.408719	7.000000	
78.428978	9.000000	
78.449238	9.000000	
78.469498	11.000000	
78.489757	10.000000	
78.510017	15.000000	
78.530277	6.000000	
78.550536	15.000000	
78.570796	6.000000	
78.591056	3.000000	
78.611316	14.000000	
78.631575	9.000000	
78.651835	8.000000	
78.672095	14.000000	
78.692354	8.000000	
78.712614	11.000000	
78.732874	14.000000	
78.753133	6.000000	
78.773393	9.000000	
78.793653	8.000000	
78.813913	11.000000	
78.834172	11.000000	
78.854432	5.000000	
78.874692	13.000000	
78.894951	11.000000	
78.915211	8.000000	
78.935471	6.000000	
78.955731	14.000000	
78.975990	12.000000	
78.996250	2.000000	
79.016510	5.000000	
79.036769	7.000000	
79.057029	13.000000	
79.077289	11.000000	
79.097548	3.000000	
79.117808	9.000000	
79.138068	3.000000	
79.158328	8.000000	
79.178587	14.000000	
79.198847	12.000000	
79.219107	6.000000	
79.239366	14.000000	
79.259626	4.000000	
79.279886	9.000000	
79.300145	8.000000	
79.320405	6.000000	
79.340665	11.000000	
79.360925	4.000000	
79.381184	6.000000	
79.401444	5.000000	
79.421704	11.000000	
79.441963	10.000000	
79.462223	9.000000	
79.482483	6.000000	
79.502742	6.000000	
79.523002	11.000000	
79.543262	7.000000	
79.563522	5.000000	
79.583781	4.000000	
79.604041	5.000000	
79.624301	5.000000	
79.644560	10.000000	
79.664820	6.000000	
79.685080	8.000000	
79.705339	6.000000	
79.725599	6.000000	
79.745859	13.000000	
79.766119	8.000000	
79.786378	7.000000	
79.806638	7.000000	
79.826898	12.000000	
79.847157	9.000000	
79.867417	6.000000	
79.887677	6.000000	
79.907936	12.000000	
79.928196	7.000000	
79.948456	6.000000	
79.968716	6.000000	
79.988975	6.000000	
80.009235	8.000000	
80.029495	8.000000	
