ﾃﾞｰﾀﾘｽﾄ,
波長 (nm),強度 (arb. unit)
250,4.798
250.2,4.762
250.4,4.767
250.6,4.805
250.8,4.764
251,4.75
251.2,4.761
251.4,4.727
251.6,4.688
251.8,4.656
252,4.646
252.2,4.588
252.4,4.547
252.6,4.498
252.8,4.438
253,4.401
253.2,4.318
253.4,4.238
253.6,4.145
253.8,4.084
254,3.97
254.2,3.878
254.4,3.776
254.6,3.658
254.8,3.544
255,3.417
255.2,3.286
255.4,3.144
255.6,3.006
255.8,2.892
256,2.769
256.2,2.658
256.4,2.558
256.6,2.441
256.8,2.323
257,2.182
257.2,2.054
257.4,1.936
257.6,1.849
257.8,1.759
258,1.636
258.2,1.534
258.4,1.437
258.6,1.347
258.8,1.251
259,1.175
259.2,1.129
259.4,1.045
259.6,0.982
259.8,0.928
260,0.87
260.2,0.812
260.4,0.772
260.6,0.731
260.8,0.693
261,0.654
261.2,0.613
261.4,0.589
261.6,0.562
261.8,0.536
262,0.53
262.2,0.514
262.4,0.505
262.6,0.496
262.8,0.481
263,0.467
263.2,0.446
263.4,0.429
263.6,0.419
263.8,0.407
264,0.403
264.2,0.392
264.4,0.388
264.6,0.39
264.8,0.392
265,0.384
265.2,0.387
265.4,0.381
265.6,0.375
265.8,0.371
266,0.369
266.2,0.362
266.4,0.369
266.6,0.369
266.8,0.362
267,0.373
267.2,0.376
267.4,0.376
267.6,0.377
267.8,0.37
268,0.367
268.2,0.369
268.4,0.365
268.6,0.372
268.8,0.373
269,0.369
269.2,0.371
269.4,0.357
269.6,0.348
269.8,0.361
270,0.354
270.2,0.355
270.4,0.363
270.6,0.361
270.8,0.367
271,0.363
271.2,0.362
271.4,0.362
271.6,0.365
271.8,0.366
272,0.36
272.2,0.357
272.4,0.359
272.6,0.365
272.8,0.357
273,0.348
273.2,0.346
273.4,0.352
273.6,0.346
273.8,0.345
274,0.338
274.2,0.333
274.4,0.33
274.6,0.329
274.8,0.327
275,0.329
275.2,0.33
275.4,0.314
275.6,0.317
275.8,0.322
276,0.327
276.2,0.316
276.4,0.306
276.6,0.306
276.8,0.309
277,0.309
277.2,0.315
277.4,0.309
277.6,0.306
277.8,0.303
278,0.304
278.2,0.308
278.4,0.311
278.6,0.312
278.8,0.315
279,0.322
279.2,0.316
279.4,0.318
279.6,0.317
279.8,0.321
280,0.325
280.2,0.328
280.4,0.322
280.6,0.324
280.8,0.32
281,0.325
281.2,0.326
281.4,0.324
281.6,0.324
281.8,0.32
282,0.326
282.2,0.318
282.4,0.32
282.6,0.32
282.8,0.32
283,0.323
283.2,0.323
283.4,0.316
283.6,0.32
283.8,0.319
284,0.32
284.2,0.32
284.4,0.315
284.6,0.311
284.8,0.306
285,0.304
285.2,0.306
285.4,0.303
285.6,0.302
285.8,0.3
286,0.302
286.2,0.296
286.4,0.301
286.6,0.305
286.8,0.303
287,0.302
287.2,0.307
287.4,0.312
287.6,0.304
287.8,0.307
288,0.306
288.2,0.312
288.4,0.312
288.6,0.308
288.8,0.316
289,0.311
289.2,0.309
289.4,0.308
289.6,0.304
289.8,0.304
290,0.305
290.2,0.305
290.4,0.309
290.6,0.303
290.8,0.307
291,0.307
291.2,0.302
291.4,0.305
291.6,0.304
291.8,0.31
292,0.313
292.2,0.306
292.4,0.307
292.6,0.306
292.8,0.307
293,0.31
293.2,0.305
293.4,0.302
293.6,0.307
293.8,0.314
294,0.321
294.2,0.324
294.4,0.321
294.6,0.318
294.8,0.32
295,0.322
295.2,0.321
295.4,0.32
295.6,0.322
295.8,0.321
296,0.312
296.2,0.317
296.4,0.323
296.6,0.322
296.8,0.321
297,0.324
297.2,0.328
297.4,0.332
297.6,0.34
297.8,0.338
298,0.344
298.2,0.343
298.4,0.346
298.6,0.34
298.8,0.331
299,0.333
299.2,0.333
299.4,0.34
299.6,0.343
299.8,0.343
300,0.346
300.2,0.347
300.4,0.353
300.6,0.347
300.8,0.355
301,0.357
301.2,0.358
301.4,0.358
301.6,0.363
301.8,0.367
302,0.365
302.2,0.371
302.4,0.366
302.6,0.369
302.8,0.37
303,0.377
303.2,0.381
303.4,0.382
303.6,0.394
303.8,0.39
304,0.388
304.2,0.389
304.4,0.389
304.6,0.389
304.8,0.392
305,0.389
305.2,0.389
305.4,0.39
305.6,0.394
305.8,0.399
306,0.406
306.2,0.41
306.4,0.413
306.6,0.417
306.8,0.418
307,0.425
307.2,0.43
307.4,0.433
307.6,0.444
307.8,0.451
308,0.447
308.2,0.453
308.4,0.462
308.6,0.469
308.8,0.477
309,0.482
309.2,0.493
309.4,0.496
309.6,0.496
309.8,0.501
310,0.508
310.2,0.513
310.4,0.517
310.6,0.518
310.8,0.521
311,0.529
311.2,0.532
311.4,0.544
311.6,0.55
311.8,0.561
312,0.563
312.2,0.574
312.4,0.578
312.6,0.595
312.8,0.609
313,0.613
313.2,0.619
313.4,0.635
313.6,0.649
313.8,0.665
314,0.682
314.2,0.706
314.4,0.73
314.6,0.743
314.8,0.775
315,0.8
315.2,0.825
315.4,0.858
315.6,0.888
315.8,0.935
316,0.99
316.2,1.049
316.4,1.111
316.6,1.182
316.8,1.264
317,1.347
317.2,1.439
317.4,1.556
317.6,1.689
317.8,1.837
318,2.003
318.2,2.183
318.4,2.396
318.6,2.621
318.8,2.867
319,3.154
319.2,3.494
319.4,3.873
319.6,4.322
319.8,4.82
320,5.338
320.2,5.941
320.4,6.6
320.6,7.334
320.8,8.172
321,9.113
321.2,10.13
321.4,11.28
321.6,12.43
321.8,13.77
322,15.17
322.2,16.78
322.4,18.43
322.6,20.3
322.8,22.38
323,24.56
323.2,26.74
323.4,29.22
323.6,31.78
323.8,34.75
324,37.79
324.2,41.24
324.4,45.01
324.6,49
324.8,53.02
325,57.26
325.2,61.58
325.4,66.34
325.6,71.08
325.8,76.24
326,81.53
326.2,87.14
326.4,92.71
326.6,98.61
326.8,104.3
327,110.4
327.2,116.5
327.4,123
327.6,129.7
327.8,136.5
328,143.1
328.2,150
328.4,156.6
328.6,163.6
328.8,170.6
329,177.8
329.2,185.1
329.4,192.2
329.6,199
329.8,205.8
330,212.2
330.2,218.7
330.4,225.2
330.6,231.6
330.8,238.2
331,244.4
331.2,250
331.4,255.7
331.6,260.8
331.8,266
332,270.7
332.2,275.3
332.4,279.3
332.6,283.1
332.8,286.4
333,289.4
333.2,292
333.4,294.3
333.6,296
333.8,297.5
334,298.5
334.2,299.4
334.4,299.7
334.6,299.8
334.8,299.3
335,298.7
335.2,297.9
335.4,296.8
335.6,295.4
335.8,293.6
336,291.9
336.2,290.1
336.4,288.3
336.6,286
336.8,284
337,282
337.2,280
337.4,278.1
337.6,276.4
337.8,274.8
338,273.6
338.2,272.4
338.4,271.7
338.6,271
338.8,270.8
339,271
339.2,271.3
339.4,272.2
339.6,273.6
339.8,275.5
340,277.7
340.2,280.4
340.4,283.8
340.6,287.6
340.8,291.5
341,295.7
341.2,300.3
341.4,305.4
341.6,310.7
341.8,316.3
342,322.1
342.2,328.1
342.4,334
342.6,340.1
342.8,346
343,352.5
343.2,358.6
343.4,364.7
343.6,371
343.8,376.8
344,382.5
344.2,388.1
344.4,393.2
344.6,398.1
344.8,402.6
345,406.9
345.2,410.7
345.4,414.3
345.6,417.1
345.8,419.7
346,421.8
346.2,423.4
346.4,424.5
346.6,425.2
346.8,425.2
347,424.7
347.2,423.7
347.4,422
347.6,419.7
347.8,416.7
348,413.2
348.2,409.1
348.4,404.6
348.6,399.7
348.8,394.5
349,388.9
349.2,383.4
349.4,376.8
349.6,370.4
349.8,363.3
350,356.1
350.2,348.8
350.4,341.6
350.6,334.2
350.8,327.1
351,319.4
351.2,311.9
351.4,304.3
351.6,296.5
351.8,288.8
352,281.4
352.2,273.8
352.4,266.5
352.6,259
352.8,251.7
353,244.5
353.2,237.3
353.4,230.3
353.6,223.8
353.8,217.3
354,211.2
354.2,205.3
354.4,199.8
354.6,194.7
354.8,190
355,185.9
355.2,182.4
355.4,179.5
355.6,177.1
355.8,175.5
356,174.2
356.2,173.9
356.4,174.4
356.6,175.5
356.8,177.3
357,180
357.2,183.2
357.4,187.6
357.6,192.5
357.8,198.4
358,205
358.2,212.2
358.4,219.7
358.6,227.8
358.8,236.6
359,246.2
359.2,256.2
359.4,266.6
359.6,277.6
359.8,288.7
360,299.6
360.2,310.7
360.4,321.7
360.6,333.2
360.8,344.4
361,355.9
361.2,367.4
361.4,378.9
361.6,389.8
361.8,400.3
362,410.3
362.2,420.3
362.4,429.6
362.6,438.8
362.8,447.6
363,455.5
363.2,462.9
363.4,469.7
363.6,475.7
363.8,481.7
364,487
364.2,491.8
364.4,495.9
364.6,499.6
364.8,502.4
365,504.7
365.2,506.4
365.4,507.3
365.6,507.6
365.8,507.4
366,506.4
366.2,505.1
366.4,503.3
366.6,501.1
366.8,498.4
367,495.1
367.2,491.3
367.4,487.1
367.6,482.3
367.8,477.3
368,472.3
368.2,466.9
368.4,461.2
368.6,454.7
368.8,448.1
369,441
369.2,433.6
369.4,425.8
369.6,418.4
369.8,410.6
370,403
370.2,394.8
370.4,386.5
370.6,377.9
370.8,369
371,360.1
371.2,351.5
371.4,342.9
371.6,334.3
371.8,325.1
372,316.2
372.2,307
372.4,297.7
372.6,288.8
372.8,280.5
373,272.6
373.2,265.2
373.4,258
373.6,251.3
373.8,245
374,239.2
374.2,234.3
374.4,230.1
374.6,226.7
374.8,224
375,222.4
375.2,221.4
375.4,221.5
375.6,222.7
375.8,224.9
376,227.8
376.2,231.5
376.4,236.2
376.6,241.9
376.8,248.3
377,255.6
377.2,264
377.4,273
377.6,282.1
377.8,291.7
378,301.3
378.2,311.9
378.4,322.3
378.6,333
378.8,343.5
379,353.6
379.2,363
379.4,371.4
379.6,379.1
379.8,386.2
380,392.4
380.2,397.7
380.4,401.7
380.6,404.9
380.8,406.8
381,407.6
381.2,407.3
381.4,405.6
381.6,402.8
381.8,398.8
382,393.9
382.2,387.9
382.4,381.3
382.6,374
382.8,366.3
383,357.4
383.2,347.9
383.4,337.5
383.6,326.5
383.8,314.9
384,303.2
384.2,291.3
384.4,279.3
384.6,266.5
384.8,253.9
385,240.9
385.2,228
385.4,215.5
385.6,203.7
385.8,192.3
386,181.6
386.2,170.7
386.4,160.4
386.6,150.1
386.8,140.2
387,130.6
387.2,121.8
387.4,113.6
387.6,105.8
387.8,98.24
388,91.21
388.2,84.44
388.4,77.97
388.6,72.05
388.8,66.76
389,61.96
389.2,57.64
389.4,53.48
389.6,49.67
389.8,46.16
390,42.95
390.2,40.01
390.4,37.41
390.6,35.1
390.8,33.02
391,31.08
391.2,29.34
391.4,27.69
391.6,26.21
391.8,24.9
392,23.71
392.2,22.62
392.4,21.67
392.6,20.79
392.8,19.99
393,19.25
393.2,18.61
393.4,18.03
393.6,17.51
393.8,17.06
394,16.66
394.2,16.32
394.4,15.99
394.6,15.71
394.8,15.45
395,15.23
395.2,15.02
395.4,14.83
395.6,14.71
395.8,14.58
396,14.48
396.2,14.42
396.4,14.34
396.6,14.28
396.8,14.24
397,14.24
397.2,14.24
397.4,14.23
397.6,14.25
397.8,14.26
398,14.28
398.2,14.28
398.4,14.29
398.6,14.28
398.8,14.31
399,14.31
399.2,14.28
399.4,14.26
399.6,14.2
399.8,14.12
400,14.04
